# z [km]	Lat [deg]	Long [deg]	Geo. Atten. [dB]	Atmo. Atten. [dB]	Travel Time [s]
0.041484407	38.730252	43.45	4.0108677	-2.8290892e-09	0.14625925
0.18313134	38.73111	43.45	-8.9511676	-1.2442699e-08	0.64578685
0.56882537	38.733444	43.45	-18.974196	-3.864307e-08	2.0070237
1.2839537	38.737749	43.45	-26.377251	-9.0136117e-08	4.5357359
2.2160585	38.743306	43.45	-31.535936	-1.7138912e-07	7.8445395
3.2323586	38.749274	43.45	-35.265941	-2.9790333e-07	11.473907
4.2767982	38.755297	43.45	-38.16158	-5.1215506e-07	15.232293
5.333188	38.761265	43.45	-40.554269	-9.133369e-07	19.067326
6.3973116	38.767149	43.45	-42.624802	-1.7362864e-06	22.967558
7.4679392	38.772944	43.45	-44.478578	-3.5004094e-06	26.930849
8.5444444	38.77865	43.45	-46.180483	-7.0928436e-06	30.955728
9.6262244	38.784275	43.45	-47.772886	-1.3378379e-05	35.039124
10.712598	38.789828	43.45	-49.284816	-2.2565604e-05	39.176015
11.802833	38.795318	43.45	-50.735576	-3.4307956e-05	43.35982
12.896188	38.800757	43.45	-52.138515	-4.8235736e-05	47.582973
13.991944	38.806156	43.45	-53.503261	-6.4202494e-05	51.8374
15.089386	38.811526	43.45	-54.835377	-8.231731e-05	56.114457
16.18778	38.81688	43.45	-56.138865	-0.00010295042	60.404773
17.286476	38.822228	43.45	-57.415382	-0.00012663625	64.699839
18.384982	38.827578	43.45	-58.666134	-0.00015394517	68.993121
19.482952	38.832936	43.45	-59.891293	-0.00018535893	73.280066
20.580184	38.838305	43.45	-61.091924	-0.00022108609	77.55803
21.676575	38.843687	43.45	-62.268874	-0.00026089457	81.825781
22.772049	38.849084	43.45	-63.424086	-0.00030412939	86.082414
23.86654	38.854495	43.45	-64.558458	-0.00034985136	90.327181
24.95996	38.859923	43.45	-65.673402	-0.00039728634	94.559094
26.052231	38.865368	43.45	-66.769619	-0.00044623868	98.777337
27.143262	38.870832	43.45	-67.847745	-0.00049753259	102.98091
28.232947	38.876317	43.45	-68.908318	-0.00055318157	107.16872
29.321185	38.881824	43.45	-69.952088	-0.0006165286	111.33977
30.407868	38.887354	43.45	-70.979524	-0.00069302826	115.49299
31.492874	38.89291	43.45	-71.990475	-0.00079531155	119.62725
32.576077	38.898493	43.45	-72.985745	-0.00093361909	123.74139
33.657316	38.904106	43.45	-73.965108	-0.0011161426	127.83392
34.736355	38.909751	43.45	-74.928899	-0.001348377	131.90266
35.813019	38.915432	43.45	-75.876938	-0.0016290597	135.94617
36.887163	38.92115	43.45	-76.808309	-0.0019503854	139.96345
37.958688	38.926906	43.45	-77.723654	-0.0023006962	143.95406
39.02758	38.9327	43.45	-78.623097	-0.0026677223	147.91848
40.093887	38.93853	43.45	-79.506932	-0.0030410198	151.85775
41.157728	38.944396	43.45	-80.375877	-0.0034121671	155.77357
42.219307	38.950294	43.45	-81.230512	-0.0037741478	159.66836
43.278904	38.956219	43.45	-82.071864	-0.0041208831	163.54513
44.336907	38.962165	43.45	-82.901555	-0.0044466067	167.40773
45.39378	38.968127	43.45	-83.72036	-0.0047462122	171.26059
46.450058	38.974096	43.45	-84.530122	-0.0050155406	175.10867
47.506274	38.980065	43.45	-85.332951	-0.005252222	178.95681
48.562889	38.986028	43.45	-86.129816	-0.0054560945	182.80921
49.620317	38.991977	43.45	-86.922733	-0.0056285308	186.6697
50.678926	38.99791	43.45	-87.713303	-0.0057719493	190.54173
51.739001	39.00382	43.45	-88.502551	-0.0058896121	194.4281
52.800782	39.009705	43.45	-89.291528	-0.0059850168	198.33123
53.864436	39.015562	43.45	-90.081433	-0.006061707	202.25301
54.930089	39.021389	43.45	-90.873268	-0.0061229776	206.19493
55.997806	39.027185	43.45	-91.667517	-0.0061718123	210.158
57.067599	39.032949	43.45	-92.464489	-0.0062108215	214.14272
58.139476	39.038682	43.45	-93.265109	-0.0062421581	218.14954
59.213431	39.044382	43.45	-94.069588	-0.0062676014	222.17882
60.289447	39.050051	43.45	-94.878591	-0.0062886188	226.23077
61.367486	39.055688	43.45	-95.69168	-0.0063064287	230.3054
62.447497	39.061295	43.45	-96.510245	-0.0063220443	234.40253
63.529408	39.066871	43.45	-97.335724	-0.006336318	238.52178
64.613147	39.072418	43.45	-98.167139	-0.0063499794	242.66269
65.698639	39.077937	43.45	-99.003629	-0.0063636724	246.82473
66.785792	39.083428	43.45	-99.844982	-0.0063779874	251.00718
67.874512	39.088895	43.45	-100.6914	-0.006393482	255.20919
68.964698	39.094337	43.45	-101.54286	-0.0064107	259.42981
70.056244	39.099757	43.45	-102.399	-0.0064301795	263.668
71.149035	39.105155	43.45	-103.25947	-0.006452453	267.92252
72.242937	39.110536	43.45	-104.12422	-0.0064780335	272.19186
73.337811	39.115899	43.45	-104.99412	-0.0065074031	276.47441
74.43342	39.12125	43.45	-105.86531	-0.0065409901	280.76719
75.529503	39.126592	43.45	-106.73897	-0.0065791806	285.06687
76.625839	39.131929	43.45	-107.6136	-0.0066223582	289.37058
77.722277	39.137264	43.45	-108.48839	-0.0066709809	293.67636
78.818702	39.142598	43.45	-109.36254	-0.006725694	297.98271
79.915053	39.147932	43.45	-110.23578	-0.0067874389	302.28882
81.011308	39.153267	43.45	-111.1072	-0.0068575195	306.59441
82.107483	39.158602	43.45	-111.97669	-0.0069376371	310.89968
83.203647	39.163936	43.45	-112.84489	-0.0070299351	315.20553
84.299916	39.169268	43.45	-113.71154	-0.0071370242	319.51349
85.396437	39.174595	43.45	-114.57711	-0.0072620276	323.82549
86.493407	39.179914	43.45	-115.4422	-0.0074086609	328.14414
87.591047	39.185221	43.45	-116.30729	-0.0075813265	332.47237
88.689613	39.190511	43.45	-117.17371	-0.0077852621	336.81373
89.789396	39.195782	43.45	-118.04192	-0.0080267078	341.17223
90.890675	39.201026	43.45	-118.91328	-0.0083132235	345.55197
91.993687	39.206241	43.45	-119.79026	-0.0086541505	349.95658
93.098527	39.211424	43.45	-120.67463	-0.0090608612	354.38787
94.205132	39.216577	43.45	-121.56725	-0.0095474182	358.84545
95.313286	39.221703	43.45	-122.46871	-0.010131285	363.32659
96.422672	39.226807	43.45	-123.3787	-0.010834075	367.82691
97.532843	39.231897	43.45	-124.29619	-0.011682705	372.33985
98.643251	39.236982	43.45	-125.21948	-0.012710551	376.85718
99.75324	39.242073	43.45	-126.14543	-0.013958694	381.36892
100.86201	39.247184	43.45	-127.07015	-0.015477343	385.86305
101.96868	39.252329	43.45	-127.989	-0.017327039	390.32694
103.0724	39.257523	43.45	-128.89664	-0.019579213	394.74921
104.17232	39.262779	43.45	-129.78803	-0.022316854	399.11944
105.26761	39.26811	43.45	-130.65975	-0.025635366	403.42871
106.35742	39.273527	43.45	-131.50799	-0.029642809	407.66933
107.44088	39.279041	43.45	-132.3297	-0.034459994	411.83477
108.5171	39.284664	43.45	-133.12245	-0.040219146	415.91956
109.5852	39.290407	43.45	-133.88478	-0.04706411	419.91979
110.64427	39.296277	43.45	-134.61475	-0.055147008	423.83256
111.69338	39.302285	43.45	-135.31202	-0.06462753	427.65604
112.73158	39.308438	43.45	-135.97616	-0.075670639	431.38928
113.75791	39.314744	43.45	-136.60737	-0.088444365	435.03208
114.77136	39.321209	43.45	-137.20576	-0.10311686	438.58502
115.77093	39.32784	43.45	-137.77147	-0.11985286	442.04922
116.7556	39.334642	43.45	-138.30566	-0.13881046	445.42649
117.72443	39.341617	43.45	-138.8089	-0.1601384	448.71943
118.67652	39.348769	43.45	-139.28266	-0.18397165	451.93113
119.61111	39.356098	43.45	-139.72874	-0.21043092	455.06538
120.52759	39.363602	43.45	-140.14878	-0.23961893	458.12651
121.42556	39.371278	43.45	-140.54537	-0.27161919	461.11925
122.3049	39.379118	43.45	-140.92144	-0.30649694	464.04891
123.16579	39.387116	43.45	-141.27903	-0.34429516	466.92112
124.00848	39.395262	43.45	-141.6206	-0.38504545	469.74095
124.83332	39.403548	43.45	-141.94876	-0.42877227	472.51314
125.64064	39.411966	43.45	-142.26434	-0.47549571	475.2418
126.43059	39.42051	43.45	-142.56846	-0.52523637	477.93013
127.20334	39.429175	43.45	-142.86214	-0.57800639	480.58108
127.95907	39.437954	43.45	-143.1462	-0.63381017	483.19731
128.69794	39.446844	43.45	-143.42135	-0.69264595	485.7812
129.42008	39.455839	43.45	-143.68837	-0.7545064	488.33487
130.12566	39.464934	43.45	-143.94793	-0.81937873	490.86029
130.81483	39.474126	43.45	-144.20064	-0.88724439	493.35926
131.48775	39.48341	43.45	-144.447	-0.95807995	495.83342
132.14455	39.492782	43.45	-144.68734	-1.0318574	498.2843
132.78537	39.502238	43.45	-144.92191	-1.1085431	500.71325
133.41033	39.511776	43.45	-145.15095	-1.188098	503.12153
134.01954	39.521392	43.45	-145.37498	-1.2704793	505.5103
134.61312	39.531082	43.45	-145.59457	-1.3556424	507.88067
135.19123	39.540844	43.45	-145.80973	-1.4435391	510.23369
135.75397	39.550674	43.45	-146.02055	-1.534116	512.5703
136.30145	39.56057	43.45	-146.22729	-1.6273173	514.89138
136.83378	39.57053	43.45	-146.4301	-1.7230859	517.19775
137.35103	39.580549	43.45	-146.629	-1.8213614	519.49018
137.85331	39.590627	43.45	-146.82428	-1.9220807	521.76938
138.34071	39.600761	43.45	-147.01635	-2.0251797	524.03606
138.81336	39.610948	43.45	-147.20523	-2.1305942	526.29088
139.27133	39.621186	43.45	-147.39073	-2.2382573	528.53445
139.7147	39.631472	43.45	-147.57293	-2.3481009	530.76734
140.14354	39.641806	43.45	-147.75214	-2.4600563	532.9901
140.55794	39.652185	43.45	-147.92851	-2.574055	535.20324
140.95798	39.662607	43.45	-148.10202	-2.6900282	537.40727
141.34374	39.673069	43.45	-148.27267	-2.8079069	539.60267
141.71526	39.683571	43.45	-148.44052	-2.9276215	541.78987
142.07264	39.69411	43.45	-148.60568	-3.0491023	543.96932
142.41592	39.704685	43.45	-148.76822	-3.1722791	546.14142
142.74517	39.715294	43.45	-148.92814	-3.2970822	548.30658
143.06046	39.725935	43.45	-149.08539	-3.4234418	550.46517
143.36183	39.736606	43.45	-149.24001	-3.5512887	552.61756
143.64933	39.747307	43.45	-149.39207	-3.6805541	554.7641
143.92301	39.758035	43.45	-149.54167	-3.8111693	556.90513
144.18292	39.76879	43.45	-149.68886	-3.9430661	559.04098
144.42911	39.779568	43.45	-149.83364	-4.0761765	561.17197
144.66163	39.79037	43.45	-149.97592	-4.2104334	563.29841
144.8805	39.801194	43.45	-150.11564	-4.3457697	565.42059
145.08576	39.812038	43.45	-150.25273	-4.4821191	567.53881
145.27744	39.8229	43.45	-150.38724	-4.6194154	569.65334
145.45554	39.83378	43.45	-150.51928	-4.757593	571.76447
145.62012	39.844677	43.45	-150.649	-4.8965863	573.87246
145.77119	39.855588	43.45	-150.7765	-5.0363303	575.97758
145.90879	39.866513	43.45	-150.9019	-5.17676	578.0801
146.03296	39.87745	43.45	-151.02527	-5.3178109	580.18026
146.14372	39.888398	43.45	-151.14664	-5.4594189	582.27834
146.24111	39.899355	43.45	-151.26589	-5.6015201	584.37456
146.32514	39.910321	43.45	-151.38292	-5.7440507	586.46918
146.39584	39.921294	43.45	-151.49765	-5.8869474	588.56243
146.45321	39.932273	43.45	-151.60998	-6.030147	590.65456
146.49726	39.943257	43.45	-151.71987	-6.1735862	592.7458
146.52801	39.954244	43.45	-151.82726	-6.3172022	594.83639
146.54545	39.965234	43.45	-151.93212	-6.460932	596.92655
146.5496	39.976224	43.45	-152.03441	-6.6047127	599.01653
146.54044	39.987214	43.45	-152.13412	-6.7484817	601.10655
146.51798	39.998203	43.45	-152.23125	-6.892176	603.19684
146.48222	40.009189	43.45	-152.32581	-7.0357327	605.28765
146.43315	40.020171	43.45	-152.41782	-7.179089	607.3792
146.37076	40.031148	43.45	-152.50731	-7.3221818	609.47172
146.29504	40.042118	43.45	-152.59431	-7.464948	611.56546
146.20598	40.053081	43.45	-152.67887	-7.6073242	613.66066
146.10355	40.064035	43.45	-152.76105	-7.749247	615.75755
145.98774	40.074979	43.45	-152.84092	-7.8906526	617.85638
145.85851	40.085912	43.45	-152.9185	-8.0314769	619.9574
145.71584	40.096832	43.45	-152.99368	-8.1716558	622.06087
145.55968	40.107737	43.45	-153.06632	-8.3111245	624.16704
145.39001	40.118628	43.45	-153.13628	-8.449818	626.27618
145.20679	40.129502	43.45	-153.20339	-8.5876712	628.38856
145.01	40.140357	43.45	-153.2675	-8.7246184	630.50445
144.79961	40.151194	43.45	-153.32848	-8.8605937	632.62413
144.5756	40.162009	43.45	-153.38631	-8.995531	634.74788
144.33794	40.172803	43.45	-153.44104	-9.1293637	636.876
144.08658	40.183572	43.45	-153.49272	-9.2620247	639.00878
143.82148	40.194317	43.45	-153.54138	-9.3934464	641.14654
143.5426	40.205035	43.45	-153.58694	-9.5235609	643.28961
143.24988	40.215725	43.45	-153.6293	-9.6522998	645.43831
142.94327	40.226385	43.45	-153.66831	-9.7795943	647.593
142.62272	40.237014	43.45	-153.7039	-9.9053754	649.75402
142.28819	40.24761	43.45	-153.73601	-10.029574	651.92176
141.93961	40.258172	43.45	-153.76465	-10.15212	654.09658
141.57691	40.268697	43.45	-153.78975	-10.272943	656.2789
141.20002	40.279184	43.45	-153.81117	-10.391974	658.46914
140.80889	40.289632	43.45	-153.82877	-10.509142	660.66774
140.40345	40.300037	43.45	-153.84246	-10.62438	662.87515
139.98361	40.310399	43.45	-153.85222	-10.737616	665.09185
139.54931	40.320716	43.45	-153.85799	-10.848784	667.31836
139.10044	40.330985	43.45	-153.85945	-10.957814	669.55521
138.63695	40.341204	43.45	-153.85632	-11.064637	671.80295
138.15876	40.351371	43.45	-153.84859	-11.169187	674.06217
137.66576	40.361483	43.45	-153.83638	-11.271396	676.33349
137.15785	40.37154	43.45	-153.81943	-11.371202	678.6176
136.63492	40.381537	43.45	-153.79726	-11.46854	680.91519
136.0969	40.391473	43.45	-153.76966	-11.563348	683.22701
135.54368	40.401344	43.45	-153.73654	-11.655567	685.55384
134.97516	40.411149	43.45	-153.69763	-11.74514	687.89653
134.39123	40.420884	43.45	-153.65263	-11.832013	690.25597
133.79178	40.430547	43.45	-153.60149	-11.916133	692.63316
133.17665	40.440134	43.45	-153.54393	-11.997454	695.02915
132.54572	40.449641	43.45	-153.47926	-12.075932	697.44508
131.89889	40.459066	43.45	-153.40701	-12.151526	699.88214
131.23603	40.468406	43.45	-153.32688	-12.224199	702.34162
130.55701	40.477655	43.45	-153.23856	-12.293918	704.82495
129.86168	40.486811	43.45	-153.14156	-12.360658	707.33368
129.14987	40.495869	43.45	-153.03526	-12.424397	709.86953
128.42144	40.504825	43.45	-152.91896	-12.485119	712.43435
127.67624	40.513673	43.45	-152.79184	-12.542812	715.03017
126.91411	40.52241	43.45	-152.65306	-12.597473	717.65919
126.1349	40.531031	43.45	-152.50183	-12.6491	720.32391
125.33842	40.539528	43.45	-152.33714	-12.697702	723.02708
124.52452	40.547897	43.45	-152.15781	-12.743293	725.77173
123.693	40.556131	43.45	-151.9628	-12.785896	728.56134
122.84348	40.564222	43.45	-151.75058	-12.82553	731.40034
121.97567	40.572161	43.45	-151.51812	-12.862224	734.29357
121.08932	40.579941	43.45	-151.26321	-12.896011	737.24635
120.18434	40.587552	43.45	-150.9834	-12.926942	740.26427
119.26097	40.59499	43.45	-150.6756	-12.955091	743.35242
118.3197	40.602253	43.45	-150.33777	-12.980547	746.51538
117.36121	40.609338	43.45	-149.96838	-13.003421	749.75729
116.3863	40.616248	43.45	-149.56563	-13.023839	753.08168
115.3959	40.622985	43.45	-149.12882	-13.041942	756.49144
114.39098	40.629552	43.45	-148.65712	-13.057881	759.98892
113.37256	40.635957	43.45	-148.14998	-13.071818	763.57562
112.34164	40.642204	43.45	-147.60751	-13.08392	767.25248
111.29921	40.648302	43.45	-147.02972	-13.094355	771.01979
110.24624	40.654257	43.45	-146.41673	-13.103289	774.87708
109.18366	40.660078	43.45	-145.76935	-13.110887	778.82308
108.11239	40.665774	43.45	-145.08814	-13.117305	782.85557
107.03334	40.671355	43.45	-144.37601	-13.122693	786.97131
105.94738	40.676832	43.45	-143.63391	-13.12719	791.16578
104.85541	40.682214	43.45	-142.86559	-13.130925	795.43311
103.75828	40.687515	43.45	-142.0741	-13.134012	799.76629
102.65682	40.692746	43.45	-141.26366	-13.136556	804.15729
101.55189	40.697921	43.45	-140.43824	-13.138648	808.59652
100.44433	40.703052	43.45	-139.60354	-13.140365	813.07321
99.334998	40.708153	43.45	-138.76504	-13.141775	817.57549
98.224764	40.713241	43.45	-137.92728	-13.142935	822.09064
97.114376	40.718326	43.45	-137.09425	-13.143891	826.60738
96.00444	40.72342	43.45	-136.26884	-13.144681	831.11647
94.895474	40.728531	43.45	-135.45252	-13.145336	835.6102
93.787871	40.733667	43.45	-134.64638	-13.145881	840.08289
92.681913	40.738831	43.45	-133.85042	-13.146335	844.53076
91.577764	40.744027	43.45	-133.06403	-13.146716	848.95192
90.475424	40.749253	43.45	-132.28618	-13.147035	853.34683
89.374743	40.754508	43.45	-131.51463	-13.147304	857.71807
88.275451	40.759786	43.45	-130.74709	-13.14753	862.06965
87.177268	40.765084	43.45	-129.98271	-13.147722	866.40559
86.079908	40.770395	43.45	-129.22069	-13.147884	870.72984
84.983132	40.775718	43.45	-128.45966	-13.148022	875.04564
83.886726	40.781047	43.45	-127.69944	-13.14814	879.35586
82.790513	40.78638	43.45	-126.93908	-13.148241	883.66281
81.694356	40.791715	43.45	-126.1786	-13.148328	887.96831
80.598156	40.79705	43.45	-125.41789	-13.148404	892.27362
79.501864	40.802384	43.45	-124.65643	-13.148471	896.57942
78.405481	40.807718	43.45	-123.89478	-13.14853	900.88567
77.309041	40.813052	43.45	-123.1338	-13.148583	905.19194
76.212626	40.818388	43.45	-122.37368	-13.148629	909.49714
75.116364	40.823726	43.45	-121.61583	-13.14867	913.79961
74.020431	40.829071	43.45	-120.8608	-13.148707	918.09706
72.925066	40.834426	43.45	-120.11024	-13.148739	922.3864
71.830538	40.839796	43.45	-119.36339	-13.148767	926.66422
70.737039	40.845183	43.45	-118.62463	-13.148791	930.92816
69.644703	40.850589	43.45	-117.89187	-13.148812	935.17668
68.553656	40.856017	43.45	-117.16613	-13.148831	939.40839
67.464011	40.861468	43.45	-116.44772	-13.148847	943.62211
66.375869	40.866944	43.45	-115.73713	-13.148862	947.81685
65.289332	40.872446	43.45	-115.03433	-13.148876	951.9917
64.20449	40.877975	43.45	-114.33938	-13.14889	956.14585
63.121432	40.883533	43.45	-113.65291	-13.148903	960.27865
62.040228	40.88912	43.45	-112.97608	-13.148918	964.38962
60.960954	40.894738	43.45	-112.30949	-13.148934	968.47831
59.883671	40.900387	43.45	-111.65119	-13.148953	972.54441
58.808429	40.906068	43.45	-111.00088	-13.148976	976.58779
57.735255	40.911781	43.45	-110.35899	-13.149003	980.60858
56.664165	40.917526	43.45	-109.72498	-13.149037	984.60702
55.595154	40.923302	43.45	-109.09869	-13.14908	988.58353
54.528219	40.92911	43.45	-108.47949	-13.149133	992.53855
53.463331	40.934948	43.45	-107.86732	-13.1492	996.47273
52.400399	40.940816	43.45	-107.26169	-13.149283	1000.3873
51.339284	40.946711	43.45	-106.66158	-13.149386	1004.2838
50.279793	40.95263	43.45	-106.06605	-13.149513	1008.1645
49.221666	40.958569	43.45	-105.47404	-13.149667	1012.0318
48.164591	40.964524	43.45	-104.88469	-13.149851	1015.8888
47.108177	40.97049	43.45	-104.29584	-13.150068	1019.7392
46.051996	40.97646	43.45	-103.70601	-13.150317	1023.5868
44.995559	40.982427	43.45	-103.11396	-13.150598	1027.436
43.93832	40.988384	43.45	-102.51714	-13.150908	1031.292
42.879767	40.994323	43.45	-101.91413	-13.151242	1035.1595
41.819462	41.000238	43.45	-101.30394	-13.151595	1039.0426
40.757059	41.006124	43.45	-100.6848	-13.151961	1042.945
39.692308	41.011977	43.45	-100.05609	-13.152334	1046.8694
38.625037	41.017794	43.45	-99.417207	-13.152706	1050.818
37.555154	41.023574	43.45	-98.767676	-13.153068	1054.7922
36.482637	41.029315	43.45	-98.107681	-13.153409	1058.7929
35.407528	41.035019	43.45	-97.436933	-13.153717	1062.8201
34.329951	41.040686	43.45	-96.755919	-13.15398	1066.8733
33.250058	41.046319	43.45	-96.065837	-13.154193	1070.9512
32.168053	41.05192	43.45	-95.367185	-13.154358	1075.0521
31.084155	41.057492	43.45	-94.660418	-13.154481	1079.174
29.998502	41.063039	43.45	-93.946231	-13.154572	1083.3155
28.91122	41.06856	43.45	-93.224442	-13.154643	1087.4756
27.822424	41.074058	43.45	-92.496204	-13.154703	1091.6531
26.73222	41.079535	43.45	-91.761438	-13.154757	1095.8469
25.640709	41.084992	43.45	-91.020499	-13.154807	1100.0562
24.547995	41.090431	43.45	-90.273779	-13.154855	1104.2797
23.454163	41.095852	43.45	-89.521914	-13.154902	1108.5165
22.359291	41.101258	43.45	-88.764998	-13.154947	1112.7659
21.263464	41.106648	43.45	-88.003505	-13.154989	1117.0268
20.166746	41.112025	43.45	-87.237613	-13.155027	1121.2985
19.069221	41.11739	43.45	-86.467652	-13.155061	1125.58
17.971017	41.122745	43.45	-85.695175	-13.155091	1129.8698
16.872392	41.128093	43.45	-84.9222	-13.155117	1134.1644
15.773743	41.133442	43.45	-84.152363	-13.15514	1138.4585
14.675625	41.138801	43.45	-83.389099	-13.155159	1142.7449
13.578731	41.144181	43.45	-82.63643	-13.155177	1147.0146
12.483798	41.149593	43.45	-81.897853	-13.155192	1151.2582
11.391532	41.15505	43.45	-81.176607	-13.155205	1155.4674
10.302666	41.160563	43.45	-80.474741	-13.155216	1159.6344
9.2179383	41.166141	43.45	-79.794667	-13.155224	1163.7518
